time-(s),steering-angle-(rad),steering-angle-velocity-(rad/s),speed-(m/s),acceleration-(m/s^2),jerk-(m/s^3)
0.01,0.00110023,0.004876532540952379,1.99634,-0.016195924358095234,-1.1849572091428549
0.02,0.00139872,0.0,1.99535,0.0,82.4237735138492
0.03,0.0018813402936236517,0.07848862579071979,1.9937475463909182,-0.2601284714571908,-35.10552690572072
0.04,0.00207615,0.0,1.9931,0.0,0.0
0.05,0.002578456197114152,0.08266120681134762,1.9914425259330053,-0.2733189667125109,-40.13949491363434
0.06,0.00286166,0.0,1.99051,0.0,0.0
0.07,0.00320975,0.03963115970394718,1.98936,-0.13078315738866336,0.4576605263160758
0.08,0.00367674,0.0059156767207096395,1.98782,-0.019494173549505278,89.59169271540745
0.09,0.00402887,0.043862297066990734,1.98666,-0.14434693773863277,-1.0013728110900786
0.1,0.00449402,0.0,1.98513,0.0,97.00108927597935
0.11,0.00484399,0.04778530226833119,1.98398,-0.15683056901705617,-16.71167341304718
0.12,0.005326775421558164,0.006221504909284711,1.9824037219850588,-0.02036501494130124,139.56525557630798
0.13,0.00564886,0.0,1.98135,0.0,36.922233410967564
0.14,0.006119796097455801,0.004031414402760003,1.9798088745148772,-0.01316303363518821,103.34290081931812
0.15,0.00634885,0.0,1.97906,0.0,30.07236038612806
0.16,0.00632015,0.0,1.97915,0.0,-9.069192059490792
0.17,0.00589883,-0.04746410010741132,1.98053,0.15504508678839937,-1.7484983673470396
0.18,0.00542245,0.0,1.98209,0.0,-100.05058363858413
0.19,0.00475153,-0.07819452278177451,1.98429,0.25628256899934576,-0.9831175059953239
0.2,0.0041354,0.0,1.98631,0.0,-128.9520735551659
0.21,0.00339119,-0.08506454426737532,1.98876,0.2800356040283324,3.383682602922221
0.22,0.00290778,0.0,1.99035,0.0,-110.39086199151501
0.23,0.00285859,-0.005672667828251381,1.99052,0.018725270109935636,0.14250473138350195
0.24,0.002929432981303689,0.007454380192016142,1.9902822132390097,-0.024601121778676006,2.8288053562405535
0.25,0.00314733,0.0,1.98956,0.0,25.243070018393468
0.26,0.00335828,0.0,1.98887,0.0,49.45975561959609
0.27,0.0036993,0.050650546068174214,1.98774,-0.16686042524468467,-22.694898785015276
0.28,0.00396347,0.0,1.98688,0.0,114.00505153310934
0.29,0.00433111,0.043507812386237875,1.98567,-0.1430501933407337,-2.8776139622646895
0.3,0.00460974,0.0,1.98475,0.0,64.17059264387707
0.31,0.00498143,0.05184548998018068,1.98353,-0.17008545430521943,-10.545254261176126
0.32,0.00526127,0.0,1.98261,0.0,62.526130285277304
0.33,0.00562918,0.038558564183764334,1.98141,-0.12622292595896473,7.105589429081405
0.34,0.0059060333973552604,1.5752055962940185e-05,1.9805083088393214,-5.148153284448679e-05,58.402843855429
0.35,0.005930250253735465,0.0007587735636486352,1.9804285371091952,-0.002479855723621633,40.29170496057438
0.36,0.005954467110115669,0.0015017950713343343,1.9803487653790692,-0.004908229914398793,22.180566065719667
0.37,0.005978683966495873,0.0022448165790200335,1.980268993648943,-0.007336604105175953,4.069427170864948
0.38,0.00598445,0.0,1.98025,0.0,0.0
0.39,0.00567436,-0.034429939614074714,1.98126,0.11257347559591305,-2.659899182747189
0.4,0.00537222,0.0,1.98225,0.0,-63.6862032160524
0.41,0.00492548,-0.05558971946526306,1.98372,0.18215752987644562,6.968970427386196
0.42,0.00452366,0.0,1.98503,0.0,-92.56378725910064
0.43,0.00399544,-0.07945849869749262,1.98677,0.26112940980136745,37.34862968088564
0.44,0.00368416,-0.005465667930419443,1.98779,0.017988500669046115,-111.87919290811732
0.45,0.00376629,0.0,1.98752,0.0,9.245887848046502
0.46,0.00393701,0.0,1.98696,0.0,37.34904087591219
0.47,0.00431491,0.07470492904999163,1.98572,-0.24562540869266525,-53.05430642501325
0.48,0.004713140036194414,0.011495956566700662,1.9844137228541883,-0.03770034772492088,112.19016442606087
0.49,0.00516725,0.0,1.98292,0.0,55.9407941127695
0.5,0.00560116,0.0,1.9815,0.0,124.80480710912306
0.51,0.00615983,0.07019485468984754,1.97968,-0.22946833419188645,-6.610220862846006
0.52,0.00663796,0.0,1.97812,0.0,105.26120689655045
0.53,0.00723538,0.08419035518474197,1.97617,-0.2742468146603041,-25.56031114421652
0.54,0.00756653,0.0,1.97509,0.0,79.07727664864832
0.55,0.00731642119258973,-0.03997508224623721,1.9759072250096488,0.13002681011192668,18.247302470088453
0.56,0.00719203,0.0,1.97631,0.0,-4.565144432478853
0.57,0.00670266,0.0,1.9779,0.0,-65.17201759708881
0.58,0.0061909607739524955,-0.010306809714438156,1.9795761382439283,0.033690628235921866,-107.13598425407002
0.59,0.00558357,0.0,1.98156,0.0,-84.57870884022874
0.6,0.00499939,-0.0001340669905433578,1.98347,0.0004390979289310426,-219.21168320121848
0.61,0.00426541,-0.09697086622765834,1.98588,0.3183105618062113,27.65979661335949
0.62,0.00361048,0.0,1.98804,0.0,-187.6410605137161
0.63,0.00281241,-0.1253176228123115,1.99067,0.41329203862401964,49.81827761013898
0.64,0.00229788,0.0,1.99237,0.0,-133.52335015136057
0.65,0.00228112,-0.0018443017586820768,1.99243,0.0060997540071236955,-0.14661093054322594
0.66,0.00237664,0.0009130996986436712,1.99211,-0.003019730587643654,17.74093945253679
0.67,0.00272985,0.0,1.99094,0.0,39.99562298335375
0.68,0.00305165,0.0,1.98988,0.0,68.59533645484944
0.69,0.00355092,0.0637588609668415,1.98823,-0.2102203074310883,-14.882883200162226
0.7,0.00396791,0.0,1.98686,0.0,111.48801716305175
0.71,0.00453623,0.06415199874372035,1.98499,-0.21083336118091028,1.2383581448884655
0.72,0.00500276,0.0,1.98346,0.0,99.25592644715827
0.73,0.00550691,0.06031061648079362,1.98181,-0.1975676602643554,-6.773747934738523
0.74,0.00588727,0.0,1.98057,0.0,89.43697821608095
0.75,0.00638974,0.06859003481370023,1.97893,-0.2240277615732047,-20.980375592774635
0.76,0.0065612,0.0,1.97837,0.0,47.88310119648991
0.77,0.00620018,-0.040920769482975294,1.97954,0.13355176040352842,-1.7906053593958688
0.78,0.00572665,0.0,1.98109,0.0,-98.9339243614928
0.79,0.00500361,-0.0837892984409799,1.98346,0.27437035634743856,-3.079244988864218
0.8,0.00432605,0.0,1.98568,0.0,-140.58040511615695
0.81,0.0034929,-0.10453513617524975,1.98842,0.3439577317939547,20.89624215511867
0.82,0.00295058,0.0,1.99021,0.0,-134.11459593098468
0.83,0.00289956,-0.005966664354322447,1.99038,0.01969682774813281,0.3803698911421538
0.84,0.00294992,0.0,1.99022,0.0,11.55546069699913
0.85,0.00323471,0.03316911537598165,1.98928,-0.10943541863075065,-0.7902332210992924
0.86,0.0035309058351409967,0.012899352494576776,1.9883037093275489,-0.04247580260303612,43.241929284165195
0.87,0.00386899,0.0,1.98719,0.0,37.52234787096806
0.88,0.00417257,0.018742477529096427,1.98619,-0.061645546105642185,24.611031978512884
0.89,0.004761645531914893,0.10140005288753808,1.984255319148936,-0.33296664437689993,-47.82705653495461
0.9,0.00491597,0.0,1.98375,0.0,0.0
0.91,0.00534432,0.05766087858316484,1.98234,-0.18896979076136203,-17.476193134926277
0.92,0.00566713,0.0,1.98129,0.0,87.0195084485386
0.93,0.00609238,0.047209425350913346,1.9799,-0.15432250233942624,2.2076403658035133
0.94,0.006321712732760622,-0.0007631240840491714,1.979150469003947,0.0024916578360806327,49.9996233967963
0.95,0.00629674,0.0,1.97923,0.0,-2.7368968884634737
0.96,0.00589809,0.0,1.98053,0.0,-91.36698102916932
0.97,0.00513866146704621,-0.12332203678563566,1.9830170002189622,0.4037961401357551,54.45303993869151
0.98,0.0048153,0.0,1.98408,0.0,0.0
0.99,0.00423467,-0.07472756580050334,1.98598,0.24538622967309442,8.999610226320868
1.0,0.00353411,-0.009479395449622674,1.98829,0.03119294041170717,-132.5233726977216
1.01,0.00307911,-0.06908543370535514,1.98979,0.2277559486607077,28.156773437497122
1.02,0.003035476185567011,0.0008152280412373409,1.9899301030927836,-0.002691249484536833,-14.956784123711175
1.03,0.0030707,0.0,1.98982,0.0,4.956687479935877
1.04,0.00330241,0.031479676923077085,1.98905,-0.10382941025641076,-5.693308717949037
1.05,0.00349995,0.0,1.9884,0.0,44.8924085470077
1.06,0.00381919,0.0,1.98735,0.0,77.87874417475813
1.07,0.00406639,0.043604161579651614,1.98654,-0.14345194779116358,-27.29969571619773
1.08,0.00441014,0.07807756423173652,1.98541,-0.2566342921914308,-57.679358690173835
1.09,0.00467053,0.030924015859030055,1.98455,-0.10153617621145117,-0.686700881056062
1.1,0.00501755,0.0,1.98341,0.0,74.81674605262981
1.11,0.00553334,0.08775560634328038,1.98172,-0.2874556697761089,-45.4114610074576
1.12,0.006406765390070927,0.02290040189125418,1.9788732624113474,-0.07466601891253354,207.47161702127374
1.13,0.00701572,0.0,1.97688,0.0,74.1920861423262
1.14,0.00782628,0.005950507042252973,1.97425,-0.019353718309857326,183.08904225352214
1.15,0.00840421,0.07455632971800955,1.97237,-0.2419367678958954,-5.519902386125608
1.16,0.00857166,0.0,1.97183,0.0,34.681358115184814
1.17,0.00863285,0.007229255147059017,1.97163,-0.023424022794118274,-0.6264658823532248
1.18,0.00846775,0.0,1.97217,0.0,-37.28020794392634
1.19,0.00830986,-0.018227250000001024,1.97268,0.05909050000000331,-1.2985999999983981
1.2,0.00798783,-0.0057945281938332205,1.97372,0.018799383259913927,-51.57839052863338
1.21,0.00771438,-0.03655592144373795,1.97461,0.11872639065817805,6.542580679407408
1.22,0.00729657,0.0,1.97597,0.0,-94.79927680798319
1.23,0.00694367,-0.05013492941176557,1.97712,0.1632262132352969,18.811514705883525
1.24,0.00645117,-0.014237565217395165,1.97872,0.04641704347827347,-115.83958260868764
1.25,0.00603136,-0.06932667377398732,1.9801,0.22634808102345455,29.372826012793368
1.26,0.005460430839160839,-0.002618298368298138,1.9819668298368298,0.008577482517481763,-139.17642191142238
1.27,0.00498951,0.0,1.98351,0.0,-63.73459591836669
1.28,0.00436545,-0.053395354838706485,1.98555,0.17523987096773147,-88.73241935484585
1.29,0.0038227,-0.07140024291497857,1.98734,0.2347792105263119,17.046665587042796
1.3,0.0031125647698744775,-0.004773724267782287,1.989675690376569,0.01575709832635937,-169.71711213389162
1.31,0.0027318,0.0,1.99094,0.0,-43.02114143166727
1.32,0.00283126,0.0,1.99061,0.0,21.68136043165447
1.33,0.0030456,0.03305461010928793,1.9899,-0.10910680054644253,-15.957645355188827
1.34,0.00352409,0.08287033333333302,1.98832,-0.27322689873417616,-60.20061181434542
1.35,0.00397266,0.14690258571427872,1.98684,-0.48363227142854837,-174.44029999998412
1.36,0.00460557,0.07018791376450498,1.98477,-0.2306468988391186,3.277442786079746
1.37,0.00515635,0.12373439447731407,1.98296,-0.4058134516765172,-98.06698224851431
1.38,0.0058658,0.0053669318181905346,1.98064,-0.017566250000028538,184.99481818180146
1.39,0.00647258,0.0,1.97865,0.0,85.88036006546946
1.4,0.0072311,0.0,1.97618,0.0,326.73812121213217
1.41,0.00764993,0.049783046808512796,1.97482,-0.16191421276596443,-4.6640680851095055
1.42,0.00748003,0.0,1.97537,0.0,-40.58429052631723
1.43,0.00702486,-0.06549415116279192,1.97685,0.21312343255814353,16.13279883721124
1.44,0.0061223041624365706,-0.02082816243654241,1.9797975634517766,0.0680988426395749,-171.33929441625477
1.45,0.00543552,0.0,1.98204,0.0,-93.09875298126238
1.46,0.00449012,0.0,1.98514,0.0,-335.20980056980204
1.47,0.0032618658514492653,-0.18547463405797085,1.9891891666666668,0.6106386576086952,82.84951079709987
1.48,0.00267575,0.0,1.99112,0.0,0.0
1.49,0.00204196,-0.0846542076923063,1.99322,0.2799663153846108,23.120799999998
1.5,0.0019728867594936707,0.0012097387341772417,1.993444430379747,-0.0040076410126583155,-20.822735645569594
1.51,0.00201413,0.0,1.99331,0.0,4.800533866396681
1.52,0.0023397320256410203,0.0033456271794858154,1.9922271282051283,-0.011062238461533952,70.2944282051309
1.53,0.00259459,0.0,1.99139,0.0,28.956955188679018
1.54,0.00303142,0.0,1.98995,0.0,102.09130232558024
1.55,0.00337062,0.04896093548386952,1.98883,-0.16148435483870488,-18.956737096772116
1.56,0.00384488,0.0,1.98727,0.0,149.09913417721052
1.57,0.00420503,0.04434907204968932,1.98608,-0.14586915113871593,-3.4596842650101536
1.58,0.00468733,0.0,1.9845,0.0,106.19226695842067
1.59,0.00505115,0.048719991402713,1.9833,-0.1597959728506724,-6.28879683257604
1.6,0.00553123,0.0,1.98173,0.0,103.05516434540255
1.61,0.00589254,0.05237704376012938,1.98055,-0.17130730632090674,-22.974078768233014
1.62,0.0063668,0.010203811764704529,1.979,-0.03332691764705453,143.62507058823832
1.63,0.00652956,0.023342475000001153,1.97847,-0.07616551814516505,-7.10612439516305
1.64,0.00619262,0.0,1.97957,0.0,-83.80482100238856
1.65,0.00575002,-0.06093964285714429,1.98102,0.19914571428571898,17.31877142857357
1.66,0.00507383,0.0,1.98323,0.0,-170.47910024450474
1.67,0.00444034,-0.09131986046511825,1.98531,0.2996251046511693,31.740627906979668
1.68,0.00366162,-0.06274459999999998,1.98787,0.20635800000000004,-60.294200000000046
1.69,0.00315491,-0.10508276987447841,1.98954,0.34632892468619714,71.07080543933353
1.7,0.00310716,0.0,1.9897,0.0,-11.071849771689523
1.71,0.00315405,0.007726418242122707,1.98954,-0.025492274461028152,-4.180680033167478
1.72,0.00341952,0.01415307123287804,1.98867,-0.04666306849315505,47.10459634702934
1.73,0.00364562,0.036912505818181875,1.98792,-0.12159681454545472,-18.28518690909099
1.74,0.004020383636363636,0.002145464693446077,1.9866865750528542,-0.007053274841437593,115.28324460887951
1.75,0.00429274,0.0,1.98579,0.0,35.575342911153506
1.76,0.00468582,0.0,1.9845,0.0,133.0003188073425
1.77,0.00498385,0.04371716955602468,1.98352,-0.14340868921775668,-14.221566173360458
1.78,0.00538159,0.003287328980893206,1.98222,-0.010770856687902952,92.06116369426482
1.79,0.00568118,0.04629476169264899,1.98124,-0.15149846770600897,-14.6125924276147
1.8,0.00607544,0.0,1.97995,0.0,91.05807593582925
1.81,0.006282626053571429,0.02983788560714302,1.9792761428571428,-0.09744039500000054,-12.352895535714485
1.82,0.00626521,0.0,1.97933,0.0,0.0
1.83,0.00589696,-0.050219934826882466,1.98053,0.1640647006109932,10.441141751525194
1.84,0.00548139,-0.019889350993374605,1.98189,0.06506004415010092,-44.76537836645039
1.85,0.004656391016166264,-0.14925633487297768,1.984598106235566,0.48936236951500656,73.578285219393
1.86,0.00436209,0.0,1.98556,0.0,-32.798652173911066
1.87,0.004315268327429145,-0.0011848352732794609,1.9857144787449392,0.0038998534919031914,0.09868770242915885
1.88,0.004031500614878544,-0.008365655111335989,1.9866507135627531,0.02753532920040471,0.6967949898785388
1.89,0.0037477329023279365,-0.015546474949392675,1.9875869483805668,0.051170804908906756,1.294902277327932
1.9,0.003463965189777329,-0.02272729478744936,1.9885231831983805,0.0748062806174088,1.8930095647773253
1.91,0.00324064,-0.014122369339622947,1.98926,0.046483399528302896,-9.89931292452804
1.92,0.00309566,0.0,1.98973,0.0,-30.689918226601414
1.93,0.00309199,-0.0005506269377049376,1.98975,0.0018234580983607206,0.2567661114754366
1.94,0.00303755,0.0,1.98993,0.0,-19.327298559078603
1.95,0.00311138,0.008586092307692403,1.98968,-0.02833822115384647,-0.463582692307833
1.96,0.00311807,4.610981735190048e-06,1.98966,-1.5197694064026518e-05,1.5095778995433262
1.97,0.00325157,0.023293522439585886,1.98922,-0.07681455466052985,-14.794236593786135
1.98,0.00330852,0.011142366666666473,1.98903,-0.036756266666666024,7.786506666667286
1.99,0.00349504,0.03951363720930291,1.98842,-0.13021134883721125,-31.029067441861365
2.0,0.00359813,0.011708715587529478,1.98808,-0.03857250839328373,6.568017745804362
2.01,0.00383511,0.05531791456311059,1.9873,-0.18213177669904157,-47.08501941748291
2.02,0.00398272,0.0,1.98681,0.0,47.17819905882123
2.03,0.00426911,0.042663406307980586,1.98587,-0.14028959554731923,-17.50204044527308
2.04,0.00446056,0.0,1.98524,0.0,58.490815238097085
2.05,0.00479594,0.042487289559167946,1.98414,-0.13946790255221472,-3.3247248259911686
2.06,0.00503093,0.0010727126984129143,1.98337,-0.003517666666667363,48.45872380952345
2.07,0.00541522,0.051298546008403605,1.98211,-0.1680558844537823,-13.361571218487732
2.08,0.00569363,0.0,1.9812,0.0,73.76998245613979
2.09,0.00612674,0.059673857142861886,1.97978,-0.1950446938775665,-19.299306122455718
2.1,0.00633169,0.0,1.97911,0.0,58.80077345971168
2.11,0.00619319,-0.01757268181818314,1.97957,0.057370454545458846,1.4556272727293802
2.12,0.00552595,0.0,1.98175,0.0,-142.30499999999307
2.13,0.00475253,-0.11012340041493943,1.98428,0.3608766618257315,38.72298547718074
2.14,0.0036689,0.0,1.98784,0.0,-318.19059665871265
2.15,0.0026152,-0.17203758561645016,1.99132,0.5674926369863404,89.57595890412688
2.16,0.00132337,-0.18912713543306459,1.9956,0.6263017795275381,76.33373858266407
2.17,0.000375593,-0.25239826422764605,1.99875,0.8389571747967606,249.0001524390319
2.18,0.00024941,0.0,1.99917,0.0,-41.49516249999812
2.19,0.000314973,0.01011967870216349,1.99895,-0.033708820632280964,-4.999908818636175
2.2,0.000702683,0.0,1.99766,0.0,156.68377322402762
2.21,0.00103444,0.04387089325842808,1.99656,-0.14581752808989135,-12.280183707866776
2.22,0.00157226,0.0,1.99477,0.0,152.19838641188434
2.23,0.00199039,0.0638747999999969,1.99339,-0.21164494999998976,-24.131039999995096
2.24,0.00257453,0.0,1.99145,0.0,156.91833975901824
2.25,0.00301883,0.05013883404255186,1.98999,-0.16557544255318712,1.1703685106403157
2.26,0.00361415,0.0,1.98802,0.0,125.78950652742184
2.27,0.00406397,0.04887659523809276,1.98654,-0.16085399999999186,3.4813190476227476
2.28,0.00465826,0.0,1.98459,0.0,125.66520555556295
2.29,0.00510625,0.057294781609195045,1.98312,-0.1879101226053628,-15.069219923371165
2.3,0.00569527,0.0,1.98119,0.0,164.42968592966002
2.31,0.00613868,0.06921343407407263,1.97975,-0.22621353333332858,-36.16680222222082
2.32,0.0062795949778956545,0.01246443200707229,1.9792896993810787,-0.040673616268785115,19.99643846153944
2.33,0.0069203,0.14285197660819038,1.9772,-0.46549040155946475,-214.98153606238512
2.34,0.00650689,-0.032578467153284135,1.97854,0.10620109489050922,-100.07686131386984
2.35,0.00596252,-0.15631433709449682,1.98032,0.5103766502115574,180.99124682651168
2.36,0.00512911,-0.05499911643835553,1.98305,0.1799885445205459,-212.46050000000145
2.37,0.00434756,-0.08870828025477265,1.98561,0.29108363057323394,-2.6547006369494284
2.38,0.00338568,0.0,1.98878,0.0,-210.06784435798534
2.39,0.00275921,-0.14636737500000147,1.99084,0.4829268125000049,136.69490625000228
2.4,0.00270421209205021,-0.01151642259414208,1.9910282845188283,0.03804316945606635,2.825114853555064
2.41,0.00275971,0.015640619675455537,1.99084,-0.05167147342798908,-14.267158012168943
2.42,0.003074366551724127,0.05163206354679632,1.9898036945812807,-0.1704456206896495,-27.36341280788045
2.43,0.00337296,0.07113866666666119,1.98882,-0.23456712368970942,-67.43237232703186
2.44,0.00382878,0.009181661795409302,1.98732,-0.030243273486437294,91.25976200417136
2.45,0.00418252,0.04738224328766996,1.98615,-0.15584396712328347,-13.843969589039204
2.46,0.00467573,0.0,1.98453,0.0,127.90983783784687
2.47,0.00505025,0.045517842677819706,1.98331,-0.1493010376568888,-6.409890376562451
2.48,0.00555134,0.0003759235807884731,1.98167,-0.0012312183406193444,122.57681004366364
2.49,0.00592933,0.04095592038216267,1.98043,-0.13394308280253817,2.3580732484119977
2.5,0.00642822,0.0,1.9788,0.0,107.2778161764654
2.51,0.006436019520426295,-0.005215787566605276,1.9787720071047956,0.017055644760206018,8.504416873887877
2.52,0.006163969924242441,-0.019430075757571566,1.9796611363636363,0.06349055555554185,16.01700126262281
2.53,0.00537437212371138,-0.08192519793813594,1.9822434020618556,0.2682140762886323,12.237668865968217
2.54,0.00505528,0.0,1.98329,0.0,0.0
2.55,0.00438393,-0.12299214879651277,1.98549,0.40361164113790116,60.596601750573114
2.56,0.00355852,0.0,1.98821,0.0,-196.62709643606405
2.57,0.003002121847507332,-0.10796921797654138,1.99004431085044,0.3560001175953138,79.57196099707026
2.58,0.00297067,0.0,1.99015,0.0,0.0
2.59,0.00302053,0.00904609690576666,1.98998,-0.02984687229254615,-5.89927496483843
2.6,0.00330255,0.05830211354166394,1.98905,-0.19232267559522906,-40.18945282737768
2.61,0.0035084466747572663,0.05002806820387977,1.988373131067961,-0.16486213834950228,-35.80145364077181
2.62,0.00354286,0.0037183490547250467,1.98826,-0.012253420895518036,14.936974626867155
2.63,0.00423111,0.073844279069766,1.986,-0.24283855813953012,-5.697976744184132
